temp, density, viscosity
Temperature (C), Density (g/cm^3), Viscosity (cm^2/s)
0,0.9999,0.01787
5,1,1.514
10,0.9997,1.304
15,0.9991,1.138
20,0.9982,1.004
25,0.9971,0.894
30,0.9957,0.802
35,0.9941,0.725
40,0.9923,0.659
50,0.9881,0.554
60,0.9832,0.475
70,0.9778,0.414
80,0.9718,0.366
90,0.9653,0.327
100,0.9584,0.295
